# X_IN,Y_IN,DY_over_DX,ANGLE,D2Y_over_DX2
0.000000000000000000e+00,7.565099999999999603e-02,2.580162139999999868e-03,0.000000000000000000e+00,0.000000000000000000e+00
8.000000000000000167e-02,7.778799999999999604e-02,4.701282250000000246e-02,2.691654440000000204e+00,5.937539689999999926e-01
1.600000000000000033e-01,8.367700000000000138e-02,1.003760399999999997e-01,5.731924499999999867e+00,5.970680910000000230e-01
2.399999999999999911e-01,9.329500000000000293e-02,1.360356249999999934e-01,7.746714640000000429e+00,2.944215479999999774e-01
3.200000000000000067e-01,1.050780000000000047e-01,1.600404850000000101e-01,9.092538599999999249e+00,3.659783870000000161e-01
4.000000000000000222e-01,1.192050000000000054e-01,1.950551429999999864e-01,1.103725269999999981e+01,5.093880699999999706e-01
4.799999999999999822e-01,1.364960000000000062e-01,2.368242249999999993e-01,1.332356120000000033e+01,4.990609209999999907e-01
5.600000000000000533e-01,1.569780000000000064e-01,2.744708169999999781e-01,1.534805919999999979e+01,4.421038640000000131e-01
6.400000000000000133e-01,1.802900000000000058e-01,3.075608429999999727e-01,1.709584780000000137e+01,3.851468060000000082e-01
7.199999999999999734e-01,2.060659999999999992e-01,3.360943060000000093e-01,1.857720360000000070e+01,3.281897489999999751e-01
8.000000000000000444e-01,2.339430000000000121e-01,3.600712030000000063e-01,1.980248789999999914e+01,2.712326910000000257e-01
8.800000000000000044e-01,2.635560000000000125e-01,3.794915360000000182e-01,2.078132989999999936e+01,2.142756339999999926e-01
9.599999999999999645e-01,2.945409999999999973e-01,3.943553040000000176e-01,2.152205999999999975e+01,1.573185759999999878e-01
1.040000000000000036e+00,3.265359999999999929e-01,4.050098639999999972e-01,2.204843299999999928e+01,1.206278060000000041e-01
1.120000000000000107e+00,3.593120000000000203e-01,4.142736879999999733e-01,2.250294039999999995e+01,1.109678070000000016e-01
1.199999999999999956e+00,3.927990000000000093e-01,4.227647130000000142e-01,2.291692619999999891e+01,1.013078079999999992e-01
1.280000000000000027e+00,4.269339999999999802e-01,4.304829379999999817e-01,2.329105309999999918e+01,9.164780960000000476e-02
1.360000000000000098e+00,4.616549999999999820e-01,4.374283629999999867e-01,2.362593250000000111e+01,8.198781080000000498e-02
1.439999999999999947e+00,4.969020000000000103e-01,4.436009870000000022e-01,2.392212119999999942e+01,7.232781189999999694e-02
1.520000000000000018e+00,5.326109999999999456e-01,4.490008120000000269e-01,2.418011900000000125e+01,6.266781309999999716e-02
1.600000000000000089e+00,5.687210000000000321e-01,4.536278380000000054e-01,2.440036680000000047e+01,5.300781420000000299e-02
1.679999999999999938e+00,6.051710000000000145e-01,4.574820629999999944e-01,2.458324479999999923e+01,4.334781540000000322e-02
1.760000000000000009e+00,6.418989999999999974e-01,4.606704750000000237e-01,2.473412850000000063e+01,4.007038839999999685e-02
1.840000000000000080e+00,6.788870000000000182e-01,4.640989360000000175e-01,2.489596429999999927e+01,4.564114610000000183e-02
1.919999999999999929e+00,7.161669999999999980e-01,4.679730579999999973e-01,2.507832769999999911e+01,5.121190379999999986e-02
2.000000000000000000e+00,7.537740000000000551e-01,4.722928410000000188e-01,2.528103049999999996e+01,5.678266149999999790e-02
2.080000000000000071e+00,7.917450000000000321e-01,4.770582839999999991e-01,2.550386239999999916e+01,6.235341920000000288e-02
2.160000000000000142e+00,8.301159999999999650e-01,4.822693880000000211e-01,2.574659030000000115e+01,6.792417689999999397e-02
2.240000000000000213e+00,8.689200000000000257e-01,4.879261520000000019e-01,2.600895849999999854e+01,7.349493460000000589e-02
2.319999999999999840e+00,9.081960000000000033e-01,4.940285770000000243e-01,2.629068810000000056e+01,7.906569230000000392e-02
2.399999999999999911e+00,9.479769999999999586e-01,5.005766630000000328e-01,2.659147739999999871e+01,8.463645000000000196e-02
2.479999999999999982e+00,9.882999999999999563e-01,5.075704089999999447e-01,2.691100139999999996e+01,9.020720769999999999e-02
2.560000000000000053e+00,1.029199999999999893e+00,5.150098159999999536e-01,2.724891200000000069e+01,9.577796539999999803e-02
2.640000000000000124e+00,1.070713000000000026e+00,5.228948839999999487e-01,2.760483779999999854e+01,1.013487230000000017e-01
2.720000000000000195e+00,1.112875000000000059e+00,5.312256119999999582e-01,2.797838459999999827e+01,1.069194809999999968e-01
2.799999999999999822e+00,1.155720999999999998e+00,5.400020009999999537e-01,2.836913499999999999e+01,1.124902380000000063e-01
2.879999999999999893e+00,1.199284000000000017e+00,5.489983330000000050e-01,2.876671269999999936e+01,1.091438970000000036e-01
2.959999999999999964e+00,1.243543999999999983e+00,5.573890339999999499e-01,2.913481609999999833e+01,1.006236370000000019e-01
3.040000000000000036e+00,1.288448000000000038e+00,5.650981149999999564e-01,2.947070940000000050e+01,9.210337709999999456e-02
3.120000000000000107e+00,1.333941000000000043e+00,5.721255739999999701e-01,2.977497740000000093e+01,8.358311720000000111e-02
3.200000000000000178e+00,1.379969000000000001e+00,5.784714130000000454e-01,3.004815419999999904e+01,7.506285740000000206e-02
3.279999999999999805e+00,1.426477999999999913e+00,5.841356319999999602e-01,3.029072280000000106e+01,6.654259749999999474e-02
3.359999999999999876e+00,1.473413000000000084e+00,5.891182289999999933e-01,3.050311410000000123e+01,5.802233770000000262e-02
3.439999999999999947e+00,1.520718999999999932e+00,5.934192059999999769e-01,3.068570749999999947e+01,4.950207780000000224e-02
3.520000000000000018e+00,1.568341999999999903e+00,5.970385620000000504e-01,3.083883030000000147e+01,4.098181800000000319e-02
3.600000000000000089e+00,1.616227000000000080e+00,5.999762969999999918e-01,3.096275789999999972e+01,3.246155810000000280e-02
3.680000000000000160e+00,1.664320000000000022e+00,6.022324110000000230e-01,3.105771370000000076e+01,2.394129830000000028e-02
3.759999999999999787e+00,1.712566000000000033e+00,6.038069040000000332e-01,3.112386920000000146e+01,1.542103839999999990e-02
3.839999999999999858e+00,1.760910999999999893e+00,6.046997769999999939e-01,3.116134410000000088e+01,6.900778590000000018e-03
3.919999999999999929e+00,1.809299999999999908e+00,6.049110290000000445e-01,3.117020630000000025e+01,-1.619481259999999917e-03
4.000000000000000000e+00,1.857677999999999940e+00,6.044406599999999630e-01,3.115047170000000065e+01,-1.013974110000000033e-02
4.080000000000000071e+00,1.905991999999999909e+00,6.032886699999999713e-01,3.110210470000000171e+01,-1.866000099999999898e-02
4.160000000000000142e+00,1.954185999999999979e+00,6.014550600000000413e-01,3.102501780000000053e+01,-2.718026080000000150e-02
4.240000000000000213e+00,2.002206999999999848e+00,5.989398289999999792e-01,3.091907139999999998e+01,-3.570052070000000188e-02
4.320000000000000284e+00,2.049999000000000127e+00,5.957429770000000069e-01,3.078407449999999912e+01,-4.422078050000000093e-02
4.400000000000000355e+00,2.097507999999999928e+00,5.918645040000000135e-01,3.061978369999999927e+01,-5.274104040000000132e-02
4.480000000000000426e+00,2.144679000000000002e+00,5.873044099999999990e-01,3.042590410000000034e+01,-6.126130020000000037e-02
4.559999999999999609e+00,2.191469000000000111e+00,5.824822029999999762e-01,3.022003859999999875e+01,-5.923384839999999707e-02
4.639999999999999680e+00,2.237880000000000091e+00,5.778270079999999753e-01,3.002048209999999884e+01,-5.714602170000000064e-02
4.719999999999999751e+00,2.283926000000000123e+00,5.733388390000000445e-01,2.982732209999999995e+01,-5.505819499999999728e-02
4.799999999999999822e+00,2.329619000000000106e+00,5.690176970000000445e-01,2.964064219999999850e+01,-5.297036819999999951e-02
4.879999999999999893e+00,2.374972999999999779e+00,5.648635800000000318e-01,2.946052299999999846e+01,-5.088254150000000309e-02
4.959999999999999964e+00,2.420002000000000209e+00,5.608764899999999498e-01,2.928704229999999953e+01,-4.879471479999999972e-02
5.040000000000000036e+00,2.464717999999999964e+00,5.570564260000000489e-01,2.912027429999999839e+01,-4.670688810000000329e-02
5.120000000000000107e+00,2.509135000000000115e+00,5.534033879999999961e-01,2.896029049999999927e+01,-4.461906139999999993e-02
5.200000000000000178e+00,2.553266999999999953e+00,5.499173760000000133e-01,2.880715909999999980e+01,-4.253123469999999656e-02
5.280000000000000249e+00,2.597125999999999824e+00,5.465983909999999613e-01,2.866094520000000045e+01,-4.044340789999999880e-02
5.360000000000000320e+00,2.640727000000000046e+00,5.434464310000000076e-01,2.852171069999999986e+01,-3.835558120000000237e-02
5.440000000000000391e+00,2.684082000000000079e+00,5.404614979999999846e-01,2.838951450000000065e+01,-3.626775449999999901e-02
5.519999999999999574e+00,2.727205000000000101e+00,5.376435899999999490e-01,2.826441230000000004e+01,-3.417992780000000258e-02
5.599999999999999645e+00,2.770109999999999850e+00,5.349927089999999552e-01,2.814645640000000171e+01,-3.209210109999999921e-02
5.679999999999999716e+00,2.812809000000000115e+00,5.325088540000000314e-01,2.803569639999999907e+01,-3.000427439999999932e-02
5.759999999999999787e+00,2.855316000000000187e+00,5.301920249999999557e-01,2.793217849999999913e+01,-2.791644769999999942e-02
5.839999999999999858e+00,2.897644000000000108e+00,5.280422219999999500e-01,2.783594569999999990e+01,-2.582862090000000166e-02
5.919999999999999929e+00,2.939807000000000059e+00,5.260594459999999861e-01,2.774703799999999987e+01,-2.374079419999999829e-02
6.000000000000000000e+00,2.981818000000000080e+00,5.242436950000000095e-01,2.766549219999999920e+01,-2.165296749999999840e-02
6.080000000000000071e+00,3.023690000000000211e+00,5.225949709999999637e-01,2.759134200000000092e+01,-1.956514079999999850e-02
6.160000000000000142e+00,3.065437000000000189e+00,5.211132729999999880e-01,2.752461800000000025e+01,-1.747731409999999860e-02
6.240000000000000213e+00,3.107073000000000196e+00,5.197986009999999713e-01,2.746534769999999881e+01,-1.538948740000000044e-02
6.320000000000000284e+00,3.148610000000000131e+00,5.186509550000000246e-01,2.741355529999999874e+01,-1.330166070000000055e-02
6.400000000000000355e+00,3.190061000000000035e+00,5.176703350000000370e-01,2.736926220000000143e+01,-1.121383389999999931e-02
6.480000000000000426e+00,3.231440999999999786e+00,5.168567410000000084e-01,2.733248650000000168e+01,-9.126007230000000164e-03
6.559999999999999609e+00,3.272762999999999867e+00,5.162101740000000216e-01,2.730324320000000071e+01,-7.038180510000000348e-03
6.639999999999999680e+00,3.314039999999999875e+00,5.157306329999999939e-01,2.728154430000000019e+01,-4.950353799999999624e-03
6.719999999999999751e+00,3.355284000000000155e+00,5.154181169999999534e-01,2.726739870000000110e+01,-2.862527079999999807e-03
6.799999999999999822e+00,3.396510999999999836e+00,5.152726279999999548e-01,2.726081200000000138e+01,-7.747003679999999587e-04
6.879999999999999893e+00,3.437732000000000010e+00,5.152941650000000262e-01,2.726178709999999938e+01,1.313126350000000083e-03
6.959999999999999964e+00,3.478962000000000110e+00,5.154681439999999615e-01,2.726966330000000127e+01,2.354959470000000075e-03
7.040000000000000036e+00,3.520205999999999946e+00,5.156200229999999829e-01,2.727653809999999979e+01,1.442008910000000099e-03
7.120000000000000107e+00,3.561459999999999848e+00,5.156988660000000335e-01,2.728010659999999987e+01,5.290583599999999732e-04
7.200000000000000178e+00,3.602716000000000030e+00,5.157046720000000306e-01,2.728036940000000143e+01,-3.838921929999999775e-04
7.280000000000000249e+00,3.643969999999999931e+00,5.156374430000000286e-01,2.727732659999999854e+01,-1.296842749999999912e-03
7.360000000000000320e+00,3.685216000000000047e+00,5.154971769999999731e-01,2.727097759999999838e+01,-2.209793299999999929e-03
7.440000000000000391e+00,3.726447999999999983e+00,5.152838760000000295e-01,2.726132129999999876e+01,-3.122743849999999946e-03
7.519999999999999574e+00,3.767659999999999787e+00,5.149975380000000325e-01,2.724835600000000113e+01,-4.035694410000000357e-03
7.599999999999999645e+00,3.808845999999999954e+00,5.146381650000000363e-01,2.723207929999999877e+01,-4.948644959999999940e-03
7.679999999999999716e+00,3.850000000000000089e+00,5.142057549999999866e-01,2.721248840000000158e+01,-5.861595510000000391e-03
7.759999999999999787e+00,3.891116999999999937e+00,5.137003100000000488e-01,2.718957969999999946e+01,-6.774546069999999934e-03
7.839999999999999858e+00,3.932189999999999852e+00,5.131218279999999465e-01,2.716334930000000014e+01,-7.687496620000000384e-03
7.919999999999999929e+00,3.973214000000000024e+00,5.124703099999999845e-01,2.713379240000000081e+01,-8.600447170000000835e-03
8.000000000000000000e+00,4.014183000000000057e+00,5.117457560000000516e-01,2.710090369999999993e+01,-9.513397729999999511e-03
8.080000000000000071e+00,4.055091000000000001e+00,5.109481660000000369e-01,2.706467740000000077e+01,-1.042634830000000075e-02
8.160000000000000142e+00,4.095932999999999602e+00,5.100775410000000232e-01,2.702510720000000077e+01,-1.133929879999999966e-02
8.240000000000000213e+00,4.136701999999999657e+00,5.091338789999999559e-01,2.698218590000000106e+01,-1.225224939999999992e-02
8.320000000000000284e+00,4.177392000000000216e+00,5.081171810000000288e-01,2.693590599999999924e+01,-1.316519990000000057e-02
8.400000000000000355e+00,4.217998999999999832e+00,5.070274470000000200e-01,2.688625929999999897e+01,-1.407815050000000082e-02
8.480000000000000426e+00,4.258515000000000050e+00,5.058646770000000403e-01,2.683323710000000162e+01,-1.499110099999999973e-02
8.560000000000000497e+00,4.298935000000000173e+00,5.046288709999999789e-01,2.677682989999999918e+01,-1.590405159999999998e-02
8.640000000000000568e+00,4.339254000000000389e+00,5.033200279999999749e-01,2.671702790000000149e+01,-1.681700220000000023e-02
8.720000000000000639e+00,4.379463999999999579e+00,5.019381499999999718e-01,2.665382049999999836e+01,-1.772995269999999915e-02
8.800000000000000711e+00,4.419561999999999991e+00,5.004832359999999980e-01,2.658719680000000096e+01,-1.864290329999999940e-02
8.880000000000000782e+00,4.459539999999999615e+00,4.989552859999999979e-01,2.651714499999999930e+01,-1.955585379999999832e-02
8.960000000000000853e+00,4.499393000000000420e+00,4.973542989999999997e-01,2.644365290000000002e+01,-2.046880439999999857e-02
9.039999999999999147e+00,4.539113999999999649e+00,4.956802770000000025e-01,2.636670769999999919e+01,-2.138175490000000095e-02
9.119999999999999218e+00,4.578700000000000436e+00,4.939332189999999789e-01,2.628629610000000127e+01,-2.229470550000000120e-02
9.199999999999999289e+00,4.618141999999999747e+00,4.921131240000000129e-01,2.620240420000000015e+01,-2.320765600000000012e-02
9.279999999999999361e+00,4.657435999999999687e+00,4.902199939999999923e-01,2.611501739999999927e+01,-2.412060660000000037e-02
9.359999999999999432e+00,4.696575000000000166e+00,4.882538269999999736e-01,2.602412070000000099e+01,-2.503355709999999928e-02
9.439999999999999503e+00,4.735553999999999597e+00,4.862146239999999842e-01,2.592969859999999827e+01,-2.594650769999999954e-02
9.519999999999999574e+00,4.774366999999999805e+00,4.841023859999999956e-01,2.583173479999999955e+01,-2.685945819999999845e-02
9.599999999999999645e+00,4.813009000000000093e+00,4.819171110000000091e-01,2.573021269999999916e+01,-2.777240879999999870e-02
9.679999999999999716e+00,4.851472000000000229e+00,4.796587999999999963e-01,2.562511509999999859e+01,-2.868535939999999895e-02
9.759999999999999787e+00,4.889751999999999654e+00,4.773274539999999844e-01,2.551642419999999944e+01,-2.959830990000000134e-02
9.839999999999999858e+00,4.927843000000000195e+00,4.749230709999999744e-01,2.540412170000000103e+01,-3.051126050000000159e-02
9.919999999999999929e+00,4.965737999999999985e+00,4.724456519999999937e-01,2.528818869999999919e+01,-3.142421100000000050e-02
1.000000000000000000e+01,5.003432000000000102e+00,4.698951969999999867e-01,2.516860600000000048e+01,-3.233716159999999729e-02
1.008000000000000007e+01,5.040918999999999706e+00,4.672717060000000089e-01,2.504535369999999972e+01,-3.325011209999999967e-02
1.016000000000000014e+01,5.078193999999999875e+00,4.645751790000000048e-01,2.491841129999999893e+01,-3.416306270000000339e-02
1.024000000000000021e+01,5.115249000000000379e+00,4.618056159999999744e-01,2.478775810000000135e+01,-3.507601319999999884e-02
1.032000000000000028e+01,5.152080999999999911e+00,4.589630169999999731e-01,2.465337269999999847e+01,-3.598896380000000256e-02
1.040000000000000036e+01,5.188680999999999877e+00,4.560473820000000011e-01,2.451523320000000083e+01,-3.690191429999999800e-02
1.048000000000000043e+01,5.225045999999999857e+00,4.530706540000000171e-01,2.437388520000000014e+01,-3.714776610000000007e-02
1.056000000000000050e+01,5.261173999999999573e+00,4.501219329999999741e-01,2.423355480000000028e+01,-3.657025390000000209e-02
1.064000000000000057e+01,5.297067000000000192e+00,4.472194130000000101e-01,2.409512030000000138e+01,-3.599274160000000278e-02
1.072000000000000064e+01,5.332729999999999748e+00,4.443630940000000140e-01,2.395859670000000108e+01,-3.541522930000000347e-02
1.080000000000000071e+01,5.368166000000000437e+00,4.415529770000000132e-01,2.382399849999999830e+01,-3.483771709999999855e-02
1.088000000000000078e+01,5.403380000000000294e+00,4.387890600000000085e-01,2.369134040000000141e+01,-3.426020479999999924e-02
1.096000000000000085e+01,5.438373999999999597e+00,4.360713440000000274e-01,2.356063639999999992e+01,-3.368269249999999992e-02
1.103999999999999915e+01,5.473151999999999795e+00,4.333998290000000142e-01,2.343190029999999879e+01,-3.310518030000000195e-02
1.111999999999999922e+01,5.507718999999999809e+00,4.307745150000000245e-01,2.330514589999999941e+01,-3.252766800000000263e-02
1.119999999999999929e+01,5.542078000000000060e+00,4.281954020000000027e-01,2.318038639999999972e+01,-3.195015570000000332e-02
1.127999999999999936e+01,5.576232000000000077e+00,4.256624900000000045e-01,2.305763500000000121e+01,-3.137264349999999841e-02
1.135999999999999943e+01,5.610185000000000421e+00,4.231757789999999742e-01,2.293690439999999953e+01,-3.079513119999999909e-02
1.143999999999999950e+01,5.643940999999999875e+00,4.207352690000000228e-01,2.281820709999999863e+01,-3.021761889999999978e-02
1.151999999999999957e+01,5.677503999999999884e+00,4.183409599999999839e-01,2.270155550000000133e+01,-2.964010669999999834e-02
1.159999999999999964e+01,5.710876999999999981e+00,4.159928520000000240e-01,2.258696139999999986e+01,-2.906259439999999902e-02
1.167999999999999972e+01,5.744063999999999837e+00,4.136909449999999766e-01,2.247443669999999827e+01,-2.848508220000000105e-02
1.175999999999999979e+01,5.777069000000000010e+00,4.114352390000000081e-01,2.236399270000000072e+01,-2.790756990000000173e-02
1.183999999999999986e+01,5.809895000000000032e+00,4.092257340000000077e-01,2.225564079999999834e+01,-2.733005759999999895e-02
1.191999999999999993e+01,5.842545999999999573e+00,4.070624299999999751e-01,2.214939169999999891e+01,-2.675254540000000097e-02
1.200000000000000000e+01,5.875026000000000082e+00,4.049453259999999943e-01,2.204525629999999836e+01,-2.617503310000000166e-02
1.208000000000000007e+01,5.907338000000000200e+00,4.028744240000000087e-01,2.194324479999999866e+01,-2.559752079999999888e-02
1.216000000000000014e+01,5.939486999999999739e+00,4.008497229999999911e-01,2.184336749999999938e+01,-2.502000860000000090e-02
1.224000000000000021e+01,5.971476000000000006e+00,3.988712229999999970e-01,2.174563420000000136e+01,-2.444249630000000159e-02
1.232000000000000028e+01,6.003307999999999645e+00,3.969389240000000263e-01,2.165005460000000070e+01,-2.386498399999999881e-02
1.240000000000000036e+01,6.034987000000000101e+00,3.950528249999999963e-01,2.155663799999999952e+01,-2.328747180000000083e-02
1.248000000000000043e+01,6.066517000000000159e+00,3.932129280000000171e-01,2.146539369999999991e+01,-2.270995950000000152e-02
1.256000000000000050e+01,6.097902000000000378e+00,3.914192320000000058e-01,2.137633040000000051e+01,-2.213244719999999874e-02
