# X_IN,Y_IN,DY_over_DX,ANGLE,D2Y_over_DX2
0.000000000000000000e+00,7.565099999999999603e-02,2.466123409999999849e-03,0.000000000000000000e+00,0.000000000000000000e+00
8.000000000000000167e-02,7.791099999999999415e-02,5.542049460000000177e-02,3.172115450000000170e+00,7.867415819999999949e-01
1.600000000000000033e-01,8.498699999999999311e-02,1.193116010000000032e-01,6.803887800000000041e+00,6.654152169999999478e-01
2.399999999999999911e-01,9.630199999999999871e-02,1.603089639999999982e-01,9.107536570000000609e+00,4.716708680000000209e-01
3.200000000000000067e-01,1.108669999999999933e-01,2.066953820000000108e-01,1.167831570000000063e+01,6.879895849999999591e-01
4.000000000000000222e-01,1.297530000000000072e-01,2.652641259999999890e-01,1.485636640000000064e+01,6.917231000000000352e-01
4.799999999999999822e-01,1.530420000000000114e-01,3.151408210000000154e-01,1.749176710000000057e+01,5.551942720000000442e-01
5.600000000000000533e-01,1.798839999999999884e-01,3.540952090000000219e-01,1.949881050000000116e+01,4.186654439999999977e-01
6.400000000000000133e-01,2.094060000000000088e-01,3.821272920000000073e-01,2.091322119999999884e+01,2.821366160000000067e-01
7.199999999999999734e-01,2.407559999999999978e-01,4.007601519999999806e-01,2.183894580000000119e+01,2.122341859999999913e-01
8.000000000000000444e-01,2.734750000000000236e-01,4.169409840000000145e-01,2.263325580000000059e+01,1.922866179999999925e-01
8.800000000000000044e-01,3.074239999999999751e-01,4.315260109999999871e-01,2.334145409999999998e+01,1.723390509999999931e-01
9.599999999999999645e-01,3.424769999999999759e-01,4.445152319999999824e-01,2.396587570000000156e+01,1.523914829999999943e-01
1.040000000000000036e+00,3.785040000000000071e-01,4.559086480000000274e-01,2.450865260000000134e+01,1.324439159999999949e-01
1.120000000000000107e+00,4.153789999999999982e-01,4.657062590000000113e-01,2.497169020000000117e+01,1.124963479999999960e-01
1.199999999999999956e+00,4.530009999999999870e-01,4.748896719999999849e-01,2.540256019999999992e+01,1.172892209999999991e-01
1.280000000000000027e+00,4.913719999999999755e-01,4.844725999999999755e-01,2.584891670000000019e+01,1.222839710000000052e-01
1.360000000000000098e+00,5.305269999999999708e-01,4.944551070000000048e-01,2.631032869999999946e+01,1.272787200000000118e-01
1.439999999999999947e+00,5.704960000000000031e-01,5.048371950000000163e-01,2.678634260000000111e+01,1.322734700000000041e-01
1.520000000000000018e+00,6.113119999999999665e-01,5.156188619999999556e-01,2.727648560000000089e+01,1.372682189999999969e-01
1.600000000000000089e+00,6.530059999999999754e-01,5.268001100000000436e-01,2.778026639999999858e+01,1.422629689999999891e-01
1.679999999999999938e+00,6.956099999999999506e-01,5.383809370000000039e-01,2.829717559999999921e+01,1.472577180000000097e-01
1.760000000000000009e+00,7.391569999999999530e-01,5.503388599999999853e-01,2.882569769999999920e+01,1.483516940000000062e-01
1.840000000000000080e+00,7.836349999999999705e-01,5.613240459999999654e-01,2.930654519999999863e+01,1.262779790000000124e-01
1.919999999999999929e+00,8.289220000000000477e-01,5.705433359999999565e-01,2.970663150000000030e+01,1.042042650000000042e-01
2.000000000000000000e+00,8.748749999999999583e-01,5.779967289999999869e-01,3.002777180000000001e+01,8.213055040000000195e-02
2.080000000000000071e+00,9.213540000000000063e-01,5.836842239999999737e-01,3.027143519999999910e+01,6.005683590000000099e-02
2.160000000000000142e+00,9.682180000000000231e-01,5.876058229999999716e-01,3.043874299999999877e+01,3.798312150000000137e-02
2.240000000000000213e+00,1.015323999999999893e+00,5.897615240000000369e-01,3.053046829999999900e+01,1.590940709999999828e-02
2.319999999999999840e+00,1.062532000000000032e+00,5.901513280000000305e-01,3.054703599999999852e+01,-6.164307320000000402e-03
2.399999999999999911e+00,1.109701000000000048e+00,5.887752349999999524e-01,3.048852300000000071e+01,-2.823802170000000097e-02
2.479999999999999982e+00,1.156689000000000078e+00,5.856332440000000528e-01,3.035465810000000175e+01,-5.031173619999999846e-02
2.560000000000000053e+00,1.203354999999999952e+00,5.807253570000000531e-01,3.014482170000000139e+01,-7.238545059999999809e-02
2.640000000000000124e+00,1.249557999999999947e+00,5.740536040000000506e-01,2.985813399999999973e+01,-9.327594200000000058e-02
2.720000000000000195e+00,1.295190000000000063e+00,5.668111359999999932e-01,2.954504740000000140e+01,-8.778575169999999761e-02
2.799999999999999822e+00,1.340260000000000007e+00,5.600078840000000113e-01,2.924917019999999823e+01,-8.229556150000000292e-02
2.879999999999999893e+00,1.384803000000000006e+00,5.536438460000000505e-01,2.897083650000000077e+01,-7.680537129999999435e-02
2.959999999999999964e+00,1.428854999999999986e+00,5.477190240000000543e-01,2.871035910000000158e+01,-7.131518109999999966e-02
3.040000000000000036e+00,1.472450000000000037e+00,5.422334170000000508e-01,2.846802890000000019e+01,-6.582499079999999669e-02
3.120000000000000107e+00,1.515624000000000082e+00,5.371870260000000119e-01,2.824411509999999836e+01,-6.033480060000000200e-02
3.200000000000000178e+00,1.558410999999999991e+00,5.325798489999999941e-01,2.803886539999999883e+01,-5.484461040000000037e-02
3.279999999999999805e+00,1.600848000000000049e+00,5.284118880000000518e-01,2.785250539999999830e+01,-4.935442019999999874e-02
3.359999999999999876e+00,1.642968999999999902e+00,5.246831419999999913e-01,2.768523899999999927e+01,-4.386422999999999711e-02
3.439999999999999947e+00,1.684809000000000001e+00,5.213936110000000346e-01,2.753724839999999929e+01,-3.837403970000000109e-02
3.520000000000000018e+00,1.726404000000000050e+00,5.185432960000000424e-01,2.740869419999999934e+01,-3.288384949999999946e-02
3.600000000000000089e+00,1.767787999999999915e+00,5.161321949999999603e-01,2.729971529999999902e+01,-2.739365930000000129e-02
3.680000000000000160e+00,1.808996999999999966e+00,5.141603099999999538e-01,2.721042900000000131e+01,-2.190346909999999966e-02
3.759999999999999787e+00,1.850065000000000071e+00,5.126276400000000510e-01,2.714093129999999832e+01,-1.641327880000000017e-02
3.839999999999999858e+00,1.891029000000000071e+00,5.115341850000000301e-01,2.709129649999999856e+01,-1.092308860000000027e-02
3.919999999999999929e+00,1.931918000000000024e+00,5.106763890000000083e-01,2.705232810000000043e+01,-1.194265920000000050e-02
4.000000000000000000e+00,1.972731000000000012e+00,5.096074919999999953e-01,2.700373169999999945e+01,-1.477976100000000063e-02
4.080000000000000071e+00,2.013449000000000044e+00,5.083116269999999881e-01,2.694476009999999988e+01,-1.761686280000000077e-02
4.160000000000000142e+00,2.054054999999999964e+00,5.067887939999999869e-01,2.687538079999999852e+01,-2.045396459999999916e-02
4.240000000000000213e+00,2.094529000000000085e+00,5.050389929999999916e-01,2.679555570000000131e+01,-2.329106649999999890e-02
4.320000000000000284e+00,2.134854999999999947e+00,5.030622230000000306e-01,2.670524119999999968e+01,-2.612816830000000076e-02
4.400000000000000355e+00,2.175012999999999863e+00,5.008584860000000472e-01,2.660438780000000136e+01,-2.896527009999999916e-02
4.480000000000000426e+00,2.214986000000000121e+00,4.984277799999999869e-01,2.649294060000000073e+01,-3.180237190000000103e-02
4.559999999999999609e+00,2.254755999999999982e+00,4.957701059999999882e-01,2.637083930000000009e+01,-3.463947380000000076e-02
4.639999999999999680e+00,2.294303000000000203e+00,4.928854639999999954e-01,2.623801770000000033e+01,-3.747657559999999916e-02
4.719999999999999751e+00,2.333610999999999880e+00,4.897738540000000085e-01,2.609440460000000073e+01,-4.031367739999999755e-02
4.799999999999999822e+00,2.372660999999999909e+00,4.864352760000000275e-01,2.593992280000000150e+01,-4.315077920000000289e-02
4.879999999999999893e+00,2.411434999999999995e+00,4.828697299999999970e-01,2.577449019999999891e+01,-4.598788110000000262e-02
4.959999999999999964e+00,2.449914000000000147e+00,4.790772150000000007e-01,2.559801919999999953e+01,-4.882498290000000102e-02
5.040000000000000036e+00,2.488081000000000209e+00,4.750577320000000103e-01,2.541041690000000131e+01,-5.166208469999999942e-02
5.120000000000000107e+00,2.525917000000000190e+00,4.708112810000000259e-01,2.521158540000000059e+01,-5.449918649999999781e-02
5.200000000000000178e+00,2.563404999999999934e+00,4.663378619999999919e-01,2.500142149999999930e+01,-5.733628839999999754e-02
5.280000000000000249e+00,2.600525000000000198e+00,4.616374750000000193e-01,2.477981720000000010e+01,-6.017339020000000288e-02
5.360000000000000320e+00,2.637261000000000077e+00,4.567101199999999972e-01,2.454665980000000047e+01,-6.301049200000000128e-02
5.440000000000000391e+00,2.673592999999999886e+00,4.515557969999999810e-01,2.430183149999999870e+01,-6.584759380000000661e-02
5.519999999999999574e+00,2.709503999999999913e+00,4.461746050000000019e-01,2.404521520000000123e+01,-6.857690060000000420e-02
5.599999999999999645e+00,2.744979999999999976e+00,4.407613530000000224e-01,2.378603109999999887e+01,-6.675439919999999472e-02
5.679999999999999716e+00,2.780028999999999861e+00,4.354939010000000166e-01,2.353283160000000152e+01,-6.493189770000000471e-02
5.759999999999999787e+00,2.814662999999999915e+00,4.303722489999999845e-01,2.328570249999999930e+01,-6.310939629999999523e-02
5.839999999999999858e+00,2.848892999999999898e+00,4.253963969999999817e-01,2.304472639999999828e+01,-6.128689479999999828e-02
5.919999999999999929e+00,2.882730000000000015e+00,4.205663459999999798e-01,2.280998370000000008e+01,-5.946439340000000268e-02
6.000000000000000000e+00,2.916186999999999863e+00,4.158820950000000072e-01,2.258155139999999861e+01,-5.764189189999999879e-02
6.080000000000000071e+00,2.949275000000000091e+00,4.113436429999999810e-01,2.235950430000000111e+01,-5.581939040000000185e-02
6.160000000000000142e+00,2.982006000000000157e+00,4.069509920000000114e-01,2.214391420000000110e+01,-5.399688899999999930e-02
6.240000000000000213e+00,3.014391999999999960e+00,4.027041410000000154e-01,2.193485019999999963e+01,-5.217438750000000236e-02
6.320000000000000284e+00,3.046443000000000012e+00,3.986030899999999932e-01,2.173237879999999933e+01,-5.035188609999999981e-02
6.400000000000000355e+00,3.078171999999999908e+00,3.946478390000000003e-01,2.153656379999999970e+01,-4.852938460000000287e-02
6.480000000000000426e+00,3.109589999999999854e+00,3.908383890000000083e-01,2.134746619999999950e+01,-4.670688309999999899e-02
6.559999999999999609e+00,3.140709999999999891e+00,3.871747380000000183e-01,2.116514460000000142e+01,-4.488438170000000338e-02
6.639999999999999680e+00,3.171542000000000083e+00,3.836568870000000020e-01,2.098965490000000145e+01,-4.306188019999999950e-02
6.719999999999999751e+00,3.202099000000000029e+00,3.802848369999999867e-01,2.082105040000000074e+01,-4.123937879999999695e-02
6.799999999999999822e+00,3.232391999999999932e+00,3.770585870000000006e-01,2.065938189999999963e+01,-3.941687730000000001e-02
6.879999999999999893e+00,3.262431999999999999e+00,3.739781369999999883e-01,2.050469779999999886e+01,-3.759437589999999746e-02
6.959999999999999964e+00,3.292231999999999825e+00,3.710434870000000052e-01,2.035704390000000075e+01,-3.577187440000000052e-02
7.040000000000000036e+00,3.321803000000000061e+00,3.682546369999999958e-01,2.021646360000000087e+01,-3.394937289999999663e-02
7.120000000000000107e+00,3.351157000000000163e+00,3.656115870000000156e-01,2.008299789999999874e+01,-3.212687150000000103e-02
7.200000000000000178e+00,3.380304999999999893e+00,3.631143370000000092e-01,1.995668530000000018e+01,-3.030437000000000061e-02
7.280000000000000249e+00,3.409259000000000039e+00,3.607628880000000038e-01,1.983756229999999832e+01,-2.848186860000000153e-02
7.360000000000000320e+00,3.438031000000000059e+00,3.585572380000000003e-01,1.972566270000000088e+01,-2.665936710000000112e-02
7.440000000000000391e+00,3.466632000000000158e+00,3.564973889999999979e-01,1.962101829999999936e+01,-2.483686560000000071e-02
7.519999999999999574e+00,3.495073999999999792e+00,3.545833400000000246e-01,1.952365849999999980e+01,-2.301436420000000163e-02
7.599999999999999645e+00,3.523369000000000195e+00,3.528150910000000251e-01,1.943361060000000151e+01,-2.119186270000000122e-02
7.679999999999999716e+00,3.551527999999999796e+00,3.511926419999999993e-01,1.935089960000000175e+01,-1.936936129999999867e-02
7.759999999999999787e+00,3.579563999999999968e+00,3.497024260000000107e-01,1.927485569999999981e+01,-1.830521879999999837e-02
7.839999999999999858e+00,3.607480999999999938e+00,3.482430850000000078e-01,1.920031889999999919e+01,-1.817829420000000029e-02
7.919999999999999929e+00,3.635282999999999820e+00,3.467938990000000166e-01,1.912623380000000139e+01,-1.805136950000000087e-02
8.000000000000000000e+00,3.662968999999999919e+00,3.453548659999999826e-01,1.905260210000000143e+01,-1.792444489999999932e-02
8.080000000000000071e+00,3.690539999999999932e+00,3.439259880000000158e-01,1.897942510000000027e+01,-1.779752019999999990e-02
8.160000000000000142e+00,3.717996999999999996e+00,3.425072630000000062e-01,1.890670450000000002e+01,-1.767059550000000048e-02
8.240000000000000213e+00,3.745340999999999809e+00,3.410986919999999811e-01,1.883444169999999929e+01,-1.754367089999999893e-02
8.320000000000000284e+00,3.772572999999999954e+00,3.397002760000000232e-01,1.876263840000000016e+01,-1.741674619999999951e-02
8.400000000000000355e+00,3.799694000000000127e+00,3.383120130000000225e-01,1.869129579999999891e+01,-1.728982150000000009e-02
8.480000000000000426e+00,3.826703000000000188e+00,3.369339040000000063e-01,1.862041560000000118e+01,-1.716289689999999854e-02
8.560000000000000497e+00,3.853603000000000112e+00,3.355659489999999745e-01,1.854999910000000085e+01,-1.703597219999999912e-02
8.640000000000000568e+00,3.880393999999999899e+00,3.342081490000000099e-01,1.848004789999999886e+01,-1.690904760000000104e-02
8.720000000000000639e+00,3.907077000000000133e+00,3.328605020000000025e-01,1.841056319999999857e+01,-1.678212290000000162e-02
8.800000000000000711e+00,3.933651999999999926e+00,3.315230089999999796e-01,1.834154660000000092e+01,-1.665519819999999873e-02
8.880000000000000782e+00,3.960121000000000002e+00,3.301956699999999967e-01,1.827299939999999978e+01,-1.652827360000000065e-02
8.960000000000000853e+00,3.986483999999999916e+00,3.288784849999999982e-01,1.820492300000000085e+01,-1.640134890000000123e-02
9.039999999999999147e+00,4.012742000000000253e+00,3.275714539999999841e-01,1.813731879999999919e+01,-1.627442429999999968e-02
9.119999999999999218e+00,4.038895000000000124e+00,3.262745770000000101e-01,1.807018809999999931e+01,-1.614749960000000026e-02
9.199999999999999289e+00,4.064945999999999948e+00,3.249878540000000204e-01,1.800353219999999865e+01,-1.602057490000000084e-02
9.279999999999999361e+00,4.090893999999999586e+00,3.237112850000000153e-01,1.793735249999999937e+01,-1.589365029999999929e-02
9.359999999999999432e+00,4.116740000000000066e+00,3.224448699999999945e-01,1.787165020000000126e+01,-1.576672559999999987e-02
9.439999999999999503e+00,4.142484999999999751e+00,3.211886090000000138e-01,1.780642669999999939e+01,-1.563980090000000045e-02
9.519999999999999574e+00,4.168129999999999669e+00,3.199425020000000175e-01,1.774168320000000065e+01,-1.551287630000000063e-02
9.599999999999999645e+00,4.193675999999999959e+00,3.187065490000000056e-01,1.767742099999999894e+01,-1.538595159999999948e-02
9.679999999999999716e+00,4.219123999999999874e+00,3.174807499999999783e-01,1.761364130000000117e+01,-1.525902699999999966e-02
9.759999999999999787e+00,4.244474000000000302e+00,3.162651049999999908e-01,1.755034549999999882e+01,-1.513210230000000024e-02
9.839999999999999858e+00,4.269726000000000354e+00,3.150596130000000161e-01,1.748753449999999887e+01,-1.500517760000000082e-02
9.919999999999999929e+00,4.294882999999999562e+00,3.138642759999999976e-01,1.742520980000000108e+01,-1.487825299999999927e-02
1.000000000000000000e+01,4.319944999999999702e+00,3.126790930000000190e-01,1.736337250000000054e+01,-1.475132829999999985e-02
1.008000000000000007e+01,4.344911999999999885e+00,3.115040640000000249e-01,1.730202369999999945e+01,-1.462440370000000003e-02
1.016000000000000014e+01,4.369786000000000392e+00,3.103391879999999881e-01,1.724116469999999879e+01,-1.449747900000000062e-02
1.024000000000000021e+01,4.394567000000000334e+00,3.091844670000000184e-01,1.718079649999999958e+01,-1.437055429999999946e-02
1.032000000000000028e+01,4.419255999999999851e+00,3.080398999999999776e-01,1.712092030000000165e+01,-1.424362969999999964e-02
1.040000000000000036e+01,4.443852999999999831e+00,3.069054860000000051e-01,1.706153730000000124e+01,-1.411670500000000023e-02
1.048000000000000043e+01,4.468360999999999805e+00,3.057812269999999888e-01,1.700264840000000177e+01,-1.398978040000000041e-02
1.056000000000000050e+01,4.492778999999999634e+00,3.046671209999999852e-01,1.694425499999999829e+01,-1.386285569999999925e-02
1.064000000000000057e+01,4.517108000000000345e+00,3.035636540000000161e-01,1.688638329999999854e+01,-1.372188490000000004e-02
1.072000000000000064e+01,4.541349000000000302e+00,3.024716319999999903e-01,1.682907690000000045e+01,-1.357866209999999962e-02
1.080000000000000071e+01,4.565503999999999785e+00,3.013910679999999842e-01,1.677233760000000018e+01,-1.343543919999999961e-02
1.088000000000000078e+01,4.589572000000000429e+00,3.003219619999999979e-01,1.671616660000000110e+01,-1.329221629999999960e-02
1.096000000000000085e+01,4.613554999999999851e+00,2.992643139999999757e-01,1.666056509999999946e+01,-1.314899339999999958e-02
1.103999999999999915e+01,4.637455000000000105e+00,2.982181230000000016e-01,1.660553409999999985e+01,-1.300577059999999917e-02
1.111999999999999922e+01,4.661271000000000164e+00,2.971833899999999917e-01,1.655107479999999853e+01,-1.286254769999999915e-02
1.119999999999999929e+01,4.685004000000000168e+00,2.961601150000000016e-01,1.649718820000000008e+01,-1.271932479999999914e-02
1.127999999999999936e+01,4.708656999999999648e+00,2.951482979999999756e-01,1.644387550000000076e+01,-1.257610190000000086e-02
1.135999999999999943e+01,4.732228000000000101e+00,2.941479390000000249e-01,1.639113770000000159e+01,-1.243287910000000045e-02
1.143999999999999950e+01,4.755721000000000309e+00,2.931590379999999829e-01,1.633897590000000122e+01,-1.228965620000000043e-02
1.151999999999999957e+01,4.779133999999999993e+00,2.921815939999999889e-01,1.628739110000000068e+01,-1.214643330000000042e-02
1.159999999999999964e+01,4.802469999999999573e+00,2.912156080000000147e-01,1.623638419999999982e+01,-1.200321040000000040e-02
1.167999999999999972e+01,4.825728999999999935e+00,2.902610800000000046e-01,1.618595639999999847e+01,-1.185998759999999999e-02
1.175999999999999979e+01,4.848912000000000333e+00,2.893180100000000143e-01,1.613610860000000002e+01,-1.171676469999999998e-02
1.183999999999999986e+01,4.872020000000000017e+00,2.883863979999999883e-01,1.608684179999999841e+01,-1.157354179999999996e-02
1.191999999999999993e+01,4.895054000000000016e+00,2.874662439999999819e-01,1.603815690000000060e+01,-1.143031889999999995e-02
1.200000000000000000e+01,4.918014999999999581e+00,2.865575470000000236e-01,1.599005479999999935e+01,-1.128709609999999954e-02
1.208000000000000007e+01,4.940903999999999741e+00,2.856603079999999739e-01,1.594253660000000039e+01,-1.114387319999999952e-02
1.216000000000000014e+01,4.963720999999999606e+00,2.847745269999999995e-01,1.589560310000000065e+01,-1.100065029999999951e-02
1.224000000000000021e+01,4.986468000000000345e+00,2.839002039999999893e-01,1.584925519999999999e+01,-1.085742739999999949e-02
1.232000000000000028e+01,5.009145000000000181e+00,2.830373389999999989e-01,1.580349380000000004e+01,-1.071420460000000081e-02
1.240000000000000036e+01,5.031754000000000282e+00,2.821859319999999727e-01,1.575831969999999949e+01,-1.057098170000000080e-02
1.248000000000000043e+01,5.054294999999999760e+00,2.813459819999999945e-01,1.571373389999999937e+01,-1.042775880000000079e-02
1.256000000000000050e+01,5.076769999999999783e+00,2.805174899999999805e-01,1.566973720000000014e+01,-1.028453590000000077e-02
